power (mW)	FWHM	peak value	peak location
53.303647	162.002624	956.325556	545.105066
53.386539	33.303120	934.480556	555.646391
53.640241	146.316392	888.363333	539.819951
52.851574	27.974729	883.508889	541.230253
53.895866	142.512275	1036.423889	539.114546
53.824722	147.825657	1014.578889	542.639873
52.898726	16.459802	961.180000	541.582722
52.857362	103.029641	936.907778	541.582722
52.650678	55.613096	1012.151667	539.819951
52.847434	63.809439	966.034444	547.216422
53.046760	133.096501	973.316111	539.114546
53.184605	133.096501	973.316111	539.114546
53.126290	31.154391	939.335000	543.344427
52.674809	134.466238	953.898333	543.344427
52.260398	133.248095	997.588333	541.935148
52.318866	87.108452	1021.860556	545.457066
52.051740	87.108452	1021.860556	545.457066
52.219033	115.280804	985.452222	542.992172
52.418057	106.098438	919.917222	540.877741
52.289865	116.199106	949.043889	539.467270
52.514547	120.843509	978.170556	541.935148
53.052260	11.067704	966.034444	540.172591
52.596820	96.759369	949.043889	543.344427
52.679675	102.618036	968.461667	542.287532
52.838107	145.906685	975.743333	539.114546
53.299684	74.768543	915.062778	543.696641
53.850845	57.346476	956.325556	540.877741
53.374772	48.620432	949.043889	542.992172
53.451108	94.677961	987.879444	539.114546
52.983272	77.657288	953.898333	544.048811
53.787031	17.445122	1014.578889	542.992172
53.660949	142.292360	978.170556	544.400939
52.286498	117.736380	1000.015556	545.105066
52.378224	48.868976	980.597778	542.287532
53.412933	54.060778	987.879444	543.344427
53.208256	54.060778	987.879444	543.344427
53.702318	112.492058	985.452222	543.696641
53.138947	10.659952	1029.142222	541.582722
52.895346	86.133153	917.490000	538.408970
52.883131	74.715450	929.626111	543.696641
52.361581	54.019859	990.306667	540.877741
52.655274	115.359089	944.189444	538.761779
53.045838	66.646114	958.752778	538.761779
53.473394	23.566577	1007.297222	541.935148
54.008234	23.566577	1007.297222	541.935148
54.018581	51.063244	915.062778	540.525187
54.059471	132.444557	970.888889	545.105066
53.676092	98.509699	946.616667	538.761779
53.322567	131.617928	934.480556	539.467270
53.231460	107.234325	966.034444	542.639873
53.224284	124.826339	978.170556	539.114546
52.673272	124.826339	978.170556	539.114546
52.363900	78.015093	980.597778	540.525187
52.138916	78.015093	980.597778	540.525187
52.688229	78.628883	929.626111	539.467270
54.422165	50.982473	956.325556	540.877741
54.419246	73.649796	978.170556	548.974707
53.662974	25.523840	1019.433333	555.997101
52.759782	47.868363	978.170556	546.512808
53.627831	150.312970	924.771667	543.696641
53.542205	35.004105	973.316111	545.809023
51.981816	131.705947	997.588333	541.935148
51.412964	82.876395	963.607222	538.056118
52.831559	45.389091	1021.860556	545.809023
53.073633	103.646488	995.161111	544.048811
52.760541	103.342223	1007.297222	541.230253
51.689250	64.032532	944.189444	541.230253
53.442228	64.032532	944.189444	541.230253
52.776923	126.733242	1041.278333	540.172591
52.873380	111.383789	1026.715000	550.029164
52.777212	96.794054	1002.442778	546.160937
53.919079	48.499355	968.461667	542.287532
53.260918	39.018196	936.907778	543.344427
53.719762	21.327817	951.471111	544.048811
53.657750	76.397371	939.335000	541.230253
53.091934	36.446137	907.781111	547.216422
54.045306	53.735639	966.034444	540.172591
53.679268	12.934980	917.490000	544.400939
53.718640	12.934980	917.490000	544.400939
54.815663	116.422383	1009.724444	539.819951
53.609991	116.422383	1009.724444	539.819951
53.380257	128.907872	1038.851111	543.696641
53.379689	32.012244	932.053333	538.761779
52.927863	98.112724	890.790556	544.753024
