"RawData - File_210319_171409.spc"
"Wavelength nm."	"T%"
190.00	0.423
191.00	-0.055
192.00	-0.302
193.00	0.005
194.00	-0.047
195.00	-0.049
196.00	-0.049
197.00	-0.002
198.00	-0.049
199.00	-0.020
200.00	-0.014
201.00	-0.018
202.00	-0.043
203.00	0.014
204.00	-0.014
205.00	-0.008
206.00	-0.002
207.00	-0.011
208.00	0.002
209.00	-0.011
210.00	0.011
211.00	-0.031
212.00	-0.012
213.00	0.043
214.00	0.008
215.00	-0.003
216.00	0.014
217.00	-0.015
218.00	0.012
219.00	-0.014
220.00	-0.006
221.00	0.008
222.00	0.015
223.00	0.002
224.00	-0.011
225.00	0.011
226.00	-0.017
227.00	-0.012
228.00	-0.040
229.00	-0.012
230.00	-0.031
231.00	0.009
232.00	-0.014
233.00	-0.006
234.00	-0.011
235.00	-0.005
236.00	0.002
237.00	-0.021
238.00	0.005
239.00	0.002
240.00	-0.029
241.00	0.000
242.00	0.000
243.00	0.005
244.00	0.008
245.00	-0.014
246.00	0.000
247.00	-0.031
248.00	0.012
249.00	-0.021
250.00	-0.026
251.00	0.002
252.00	0.003
253.00	-0.020
254.00	0.003
255.00	0.015
256.00	0.000
257.00	-0.002
258.00	-0.017
259.00	-0.038
260.00	-0.017
261.00	0.002
262.00	-0.011
263.00	-0.021
264.00	0.024
265.00	-0.024
266.00	-0.058
267.00	-0.040
268.00	-0.015
269.00	0.005
270.00	-0.018
271.00	-0.015
272.00	0.026
273.00	0.023
274.00	-0.029
275.00	-0.015
276.00	-0.069
277.00	-0.049
278.00	-0.075
279.00	-0.031
280.00	-0.047
281.00	0.031
282.00	0.002
283.00	-0.066
284.00	0.038
285.00	0.047
286.00	-0.040
287.00	-0.011
288.00	-0.005
289.00	-0.017
290.00	0.003
291.00	-0.002
292.00	0.041
293.00	0.014
294.00	-0.014
295.00	-0.061
296.00	-0.021
297.00	-0.073
298.00	0.038
299.00	0.069
300.00	0.096
301.00	0.099
302.00	0.069
303.00	0.131
304.00	0.180
305.00	0.156
306.00	0.305
307.00	0.407
308.00	0.473
309.00	0.578
310.00	0.597
311.00	1.167
312.00	1.126
313.00	1.129
314.00	1.564
315.00	2.603
316.00	3.024
317.00	3.935
318.00	4.559
319.00	5.463
320.00	6.650
321.00	7.956
322.00	9.291
323.00	10.852
324.00	12.387
325.00	14.209
326.00	15.892
327.00	17.601
328.00	19.618
329.00	21.460
330.00	23.343
331.00	25.134
332.00	26.848
333.00	28.514
334.00	30.280
335.00	32.314
336.00	33.907
337.00	35.381
338.00	36.710
339.00	38.060
340.00	39.262
341.00	40.025
342.00	40.768
343.00	41.371
344.00	41.878
345.00	42.239
346.00	42.435
347.00	42.372
348.00	42.699
349.00	43.181
350.00	43.600
351.00	44.122
352.00	44.714
353.00	45.328
354.00	45.915
355.00	46.844
356.00	47.380
357.00	48.058
358.00	48.793
359.00	49.419
360.00	49.983
361.00	50.444
362.00	50.800
363.00	51.152
364.00	51.457
365.00	51.572
366.00	51.883
367.00	52.150
368.00	52.321
369.00	52.507
370.00	52.705
371.00	53.093
372.00	53.139
373.00	53.415
374.00	53.770
375.00	53.922
376.00	54.018
377.00	54.137
378.00	54.390
379.00	54.584
380.00	54.771
381.00	54.982
382.00	55.151
383.00	55.469
384.00	55.798
385.00	56.200
386.00	56.647
387.00	57.159
388.00	57.817
389.00	58.565
390.00	59.369
391.00	60.211
392.00	61.024
393.00	61.847
394.00	62.720
395.00	63.690
396.00	64.542
397.00	65.350
398.00	66.196
399.00	66.956
400.00	67.731
401.00	68.506
402.00	69.249
403.00	69.992
404.00	70.811
405.00	71.608
406.00	72.519
407.00	73.441
408.00	74.429
409.00	75.461
410.00	76.422
411.00	77.451
412.00	78.424
413.00	79.332
414.00	80.168
415.00	81.053
416.00	81.726
417.00	82.445
418.00	83.003
419.00	83.472
420.00	83.896
421.00	84.261
422.00	84.557
423.00	84.750
424.00	84.975
425.00	85.164
426.00	85.300
427.00	85.405
428.00	85.519
429.00	85.593
430.00	85.672
431.00	85.745
432.00	85.793
433.00	85.844
434.00	85.870
435.00	85.941
436.00	85.962
437.00	85.985
438.00	86.008
439.00	86.011
440.00	86.037
441.00	86.057
442.00	86.058
443.00	85.982
444.00	85.893
445.00	85.869
446.00	85.818
447.00	85.745
448.00	85.625
449.00	85.486
450.00	85.376
451.00	85.164
452.00	84.970
453.00	84.740
454.00	84.560
455.00	84.279
456.00	84.024
457.00	83.739
458.00	83.455
459.00	83.145
460.00	82.799
461.00	82.462
462.00	82.100
463.00	81.812
464.00	81.445
465.00	81.085
466.00	80.737
467.00	80.356
468.00	79.976
469.00	79.597
470.00	79.182
471.00	78.767
472.00	78.290
473.00	77.811
474.00	77.217
475.00	76.674
476.00	76.012
477.00	75.304
478.00	74.533
479.00	73.701
480.00	72.833
481.00	71.906
482.00	70.911
483.00	69.827
484.00	68.689
485.00	67.525
486.00	66.335
487.00	65.092
488.00	63.829
489.00	62.569
490.00	61.305
491.00	60.094
492.00	58.939
493.00	57.817
494.00	56.709
495.00	55.693
496.00	54.726
497.00	53.870
498.00	53.108
499.00	52.396
500.00	51.723
501.00	51.126
502.00	50.563
503.00	50.020
504.00	49.501
505.00	49.002
506.00	48.453
507.00	47.862
508.00	47.194
509.00	46.501
510.00	45.648
511.00	44.704
512.00	43.654
513.00	42.416
514.00	41.199
515.00	39.771
516.00	38.248
517.00	36.551
518.00	34.889
519.00	33.124
520.00	31.358
521.00	29.608
522.00	27.870
523.00	26.196
524.00	24.623
525.00	23.134
526.00	21.687
527.00	20.421
528.00	19.284
529.00	18.314
530.00	17.473
531.00	16.788
532.00	16.235
533.00	15.831
534.00	15.599
535.00	15.509
536.00	15.601
537.00	15.880
538.00	16.309
539.00	16.907
540.00	17.685
541.00	18.704
542.00	19.934
543.00	21.385
544.00	23.137
545.00	25.066
546.00	27.232
547.00	29.620
548.00	32.268
549.00	35.150
550.00	38.103
551.00	41.347
552.00	44.577
553.00	47.929
554.00	51.126
555.00	54.541
556.00	57.738
557.00	60.985
558.00	64.122
559.00	67.015
560.00	69.760
561.00	72.319
562.00	74.655
563.00	76.724
564.00	78.644
565.00	80.440
566.00	82.005
567.00	83.368
568.00	84.605
569.00	85.690
570.00	86.621
571.00	87.437
572.00	88.101
573.00	88.681
574.00	89.232
575.00	89.713
576.00	90.074
577.00	90.379
578.00	90.657
579.00	90.871
580.00	91.083
581.00	91.281
582.00	91.437
583.00	91.573
584.00	91.670
585.00	91.737
586.00	91.832
587.00	91.905
588.00	91.982
589.00	92.058
590.00	92.091
591.00	92.104
592.00	92.148
593.00	92.186
594.00	92.201
595.00	92.249
596.00	92.296
597.00	92.310
598.00	92.308
599.00	92.293
600.00	92.300
601.00	92.300
602.00	92.296
603.00	92.307
604.00	92.297
605.00	92.302
606.00	92.282
607.00	92.339
608.00	92.361
609.00	92.366
610.00	92.371
611.00	92.336
612.00	92.316
613.00	92.343
614.00	92.322
615.00	92.297
616.00	92.296
617.00	92.323
618.00	92.323
619.00	92.316
620.00	92.308
621.00	92.293
622.00	92.307
623.00	92.300
624.00	92.282
625.00	92.273
626.00	92.267
627.00	92.281
628.00	92.264
629.00	92.258
630.00	92.256
631.00	92.258
632.00	92.255
633.00	92.273
634.00	92.355
635.00	92.322
636.00	92.317
637.00	92.342
638.00	92.360
639.00	92.320
640.00	92.314
641.00	92.303
642.00	92.274
643.00	92.207
644.00	92.151
645.00	92.131
646.00	92.123
647.00	92.117
648.00	92.093
649.00	92.064
650.00	92.131
651.00	92.123
652.00	92.160
653.00	92.148
654.00	92.159
655.00	92.175
656.00	92.174
657.00	92.210
658.00	92.191
659.00	92.188
660.00	92.183
661.00	92.184
662.00	92.174
663.00	92.166
664.00	92.186
665.00	92.183
666.00	92.183
667.00	92.168
668.00	92.151
669.00	92.134
670.00	92.126
671.00	92.111
672.00	92.107
673.00	92.097
674.00	92.117
675.00	92.097
676.00	92.108
677.00	92.079
678.00	92.078
679.00	92.065
680.00	92.061
681.00	92.072
682.00	92.052
683.00	92.046
684.00	92.050
685.00	92.070
686.00	92.061
687.00	92.047
688.00	92.039
689.00	92.050
690.00	92.030
691.00	92.001
692.00	92.006
693.00	91.994
694.00	91.989
695.00	91.965
696.00	91.978
697.00	91.951
698.00	91.959
699.00	91.977
700.00	91.949
701.00	91.919
702.00	91.937
703.00	91.914
704.00	91.902
705.00	91.872
706.00	91.882
707.00	91.875
708.00	91.872
709.00	91.858
710.00	91.867
711.00	91.855
712.00	91.864
713.00	91.852
714.00	91.835
715.00	91.817
716.00	91.797
717.00	91.792
718.00	91.769
719.00	91.753
720.00	91.743
721.00	91.739
722.00	91.739
723.00	91.727
724.00	91.711
725.00	91.719
726.00	91.725
727.00	91.719
728.00	91.708
729.00	91.678
730.00	91.663
731.00	91.653
732.00	91.653
733.00	91.650
734.00	91.647
735.00	91.646
736.00	91.655
737.00	91.628
738.00	91.603
739.00	91.588
740.00	91.592
741.00	91.589
742.00	91.563
743.00	91.562
744.00	91.566
745.00	91.537
746.00	91.531
747.00	91.537
748.00	91.505
749.00	91.504
750.00	91.495
751.00	91.489
752.00	91.487
753.00	91.463
754.00	91.463
755.00	91.449
756.00	91.446
757.00	91.443
758.00	91.423
759.00	91.402
760.00	91.287
761.00	91.447
762.00	91.403
763.00	91.394
764.00	91.350
765.00	91.345
766.00	91.338
767.00	91.345
768.00	91.341
769.00	91.333
770.00	91.313
771.00	91.331
772.00	91.324
773.00	91.312
774.00	91.313
775.00	91.283
776.00	91.292
777.00	91.246
778.00	91.261
779.00	91.261
780.00	91.245
781.00	91.246
782.00	91.185
783.00	91.176
784.00	91.179
785.00	91.206
786.00	91.194
787.00	91.196
788.00	91.185
789.00	91.162
790.00	91.165
791.00	91.147
792.00	91.136
793.00	91.138
794.00	91.115
795.00	91.098
796.00	91.096
797.00	91.072
798.00	91.052
799.00	91.051
800.00	91.034
801.00	91.040
802.00	91.052
803.00	91.040
804.00	91.035
805.00	91.025
806.00	91.016
807.00	90.987
808.00	90.994
809.00	90.977
810.00	90.945
811.00	90.956
812.00	90.941
813.00	90.926
814.00	90.912
815.00	90.933
816.00	90.929
817.00	90.930
818.00	90.918
819.00	90.894
820.00	90.880
821.00	90.880
822.00	90.887
823.00	90.863
824.00	90.872
825.00	90.858
826.00	90.857
827.00	90.836
828.00	90.851
829.00	90.823
830.00	90.822
831.00	90.813
832.00	90.828
833.00	90.826
834.00	90.808
835.00	90.759
836.00	90.778
837.00	90.779
838.00	90.764
839.00	90.762
840.00	90.768
841.00	90.746
842.00	90.744
843.00	90.752
844.00	90.765
845.00	90.742
846.00	90.721
847.00	90.710
848.00	90.685
849.00	90.663
850.00	90.671
851.00	90.677
852.00	90.689
853.00	90.692
854.00	90.672
855.00	90.659
856.00	90.654
857.00	90.646
858.00	90.643
859.00	90.666
860.00	90.657
861.00	90.631
862.00	90.605
863.00	90.601
864.00	90.611
865.00	90.608
866.00	90.610
867.00	90.602
868.00	90.588
869.00	90.585
870.00	90.572
871.00	90.564
872.00	90.559
873.00	90.561
874.00	90.596
875.00	90.561
876.00	90.544
877.00	90.546
878.00	90.546
879.00	90.581
880.00	90.541
881.00	90.500
882.00	90.508
883.00	90.497
884.00	90.491
885.00	90.494
886.00	90.480
887.00	90.485
888.00	90.489
889.00	90.508
890.00	90.494
891.00	90.460
892.00	90.474
893.00	90.471
894.00	90.468
895.00	90.459
896.00	90.468
897.00	90.448
898.00	90.446
899.00	90.411
900.00	90.414
901.00	90.439
902.00	90.413
903.00	90.421
904.00	90.425
905.00	90.405
906.00	90.401
907.00	90.414
908.00	90.396
909.00	90.392
910.00	90.381
911.00	90.363
912.00	90.387
913.00	90.396
914.00	90.382
915.00	90.356
916.00	90.347
917.00	90.355
918.00	90.358
919.00	90.384
920.00	90.356
921.00	90.355
922.00	90.334
923.00	90.343
924.00	90.332
925.00	90.311
926.00	90.320
927.00	90.334
928.00	90.338
929.00	90.321
930.00	90.294
931.00	90.329
932.00	90.317
933.00	90.292
934.00	90.318
935.00	90.317
936.00	90.303
937.00	90.309
938.00	90.312
939.00	90.314
940.00	90.288
941.00	90.314
942.00	90.308
943.00	90.315
944.00	90.308
945.00	90.300
946.00	90.280
947.00	90.262
948.00	90.286
949.00	90.283
950.00	90.298
951.00	90.324
952.00	90.300
953.00	90.295
954.00	90.294
955.00	90.318
956.00	90.300
957.00	90.277
958.00	90.266
959.00	90.277
960.00	90.251
961.00	90.240
962.00	90.248
963.00	90.263
964.00	90.276
965.00	90.289
966.00	90.276
967.00	90.259
968.00	90.263
969.00	90.268
970.00	90.263
971.00	90.260
972.00	90.266
973.00	90.263
974.00	90.273
975.00	90.265
976.00	90.251
977.00	90.268
978.00	90.268
979.00	90.257
980.00	90.254
981.00	90.225
982.00	90.225
983.00	90.234
984.00	90.240
985.00	90.230
986.00	90.250
987.00	90.256
988.00	90.242
989.00	90.208
990.00	90.230
991.00	90.233
992.00	90.239
993.00	90.253
994.00	90.242
995.00	90.244
996.00	90.216
997.00	90.202
998.00	90.215
999.00	90.210
1000.00	90.208
1001.00	90.221
1002.00	90.227
1003.00	90.211
1004.00	90.201
1005.00	90.205
1006.00	90.201
1007.00	90.222
1008.00	90.213
1009.00	90.222
1010.00	90.201
1011.00	90.205
1012.00	90.193
1013.00	90.210
1014.00	90.228
1015.00	90.233
1016.00	90.211
1017.00	90.224
1018.00	90.192
1019.00	90.218
1020.00	90.213
1021.00	90.213
1022.00	90.205
1023.00	90.219
1024.00	90.228
1025.00	90.208
1026.00	90.224
1027.00	90.218
1028.00	90.231
1029.00	90.234
1030.00	90.215
1031.00	90.210
1032.00	90.204
1033.00	90.213
1034.00	90.221
1035.00	90.251
1036.00	90.265
1037.00	90.233
1038.00	90.242
1039.00	90.247
1040.00	90.247
1041.00	90.233
1042.00	90.242
1043.00	90.240
1044.00	90.227
1045.00	90.225
1046.00	90.218
1047.00	90.244
1048.00	90.248
1049.00	90.237
1050.00	90.230
1051.00	90.242
1052.00	90.247
1053.00	90.250
1054.00	90.248
1055.00	90.244
1056.00	90.256
1057.00	90.260
1058.00	90.274
1059.00	90.271
1060.00	90.294
1061.00	90.286
1062.00	90.292
1063.00	90.276
1064.00	90.257
1065.00	90.266
1066.00	90.282
1067.00	90.300
1068.00	90.288
1069.00	90.298
1070.00	90.283
1071.00	90.280
1072.00	90.263
1073.00	90.276
1074.00	90.308
1075.00	90.331
1076.00	90.311
1077.00	90.292
1078.00	90.289
1079.00	90.285
1080.00	90.318
1081.00	90.324
1082.00	90.321
1083.00	90.346
1084.00	90.326
1085.00	90.335
1086.00	90.343
1087.00	90.359
1088.00	90.332
1089.00	90.324
1090.00	90.350
1091.00	90.355
1092.00	90.350
1093.00	90.352
1094.00	90.347
1095.00	90.356
1096.00	90.355
1097.00	90.364
1098.00	90.395
1099.00	90.358
1100.00	90.329
